# dimensionless total [l(l+1)/2pi] C_l's
# for l=2 to 3000, i.e. number of multipoles equal to 2999
#
# -> if you prefer output in CAMB/HealPix/LensPix units/order, set 'format' to 'camb' in input file
# -> if you don't want to see such a header, set 'headers' to 'no' in input file
# -> for CMB lensing (phi), these are C_l^phi-phi for the lensing potential.
#    Remember the conversion factors:
#    C_l^dd (deflection) = l(l+1) C_l^phi-phi
#    C_l^gg (shear/convergence) = 1/4 (l(l+1))^2 C_l^phi-phi
#
# 1:l     2:TT                     3:EE                     4:TE                     5:BB                     6:phiphi                 7:TPhi                   8:Ephi               
    2       1.495437887191e-10       7.309026172908e-15       4.815171199965e-13       0.000000000000e+00       8.628903609863e-09       4.854772121439e-10      -2.515854151611e-12 
    3       1.409365943025e-10       1.238791651650e-14       6.068719691960e-13       0.000000000000e+00       5.411291720684e-09       3.469573579981e-10      -2.211507031142e-12 
    4       1.324622774946e-10       1.446512635929e-14       6.277976520576e-13       0.000000000000e+00       3.776588552529e-09       2.639785058319e-10      -1.764116067079e-12 
    5       1.257504767747e-10       1.337853519881e-14       5.879551646998e-13       0.000000000000e+00       2.821984230335e-09       2.093815846378e-10      -1.309529286449e-12 
    6       1.208053913445e-10       1.032310747923e-14       5.173990841433e-13       0.000000000000e+00       2.205212283153e-09       1.709429020608e-10      -8.948468925434e-13 
    7       1.173297571366e-10       6.841600365872e-15       4.365335862039e-13       0.000000000000e+00       1.778233642777e-09       1.425663892124e-10      -5.443860557510e-13 
    8       1.150037075897e-10       4.042374146249e-15       3.576623511391e-13       0.000000000000e+00       1.468351551130e-09       1.208855296480e-10      -2.689334595818e-13 
    9       1.135829011396e-10       2.336357197400e-15       2.880590507293e-13       0.000000000000e+00       1.235838581766e-09       1.038809745613e-10      -7.009986714675e-14 
   10       1.128526892628e-10       1.571653533688e-15       2.317799681291e-13       0.000000000000e+00       1.056623422304e-09       9.029297643025e-11       5.745597591295e-14 
   11       1.126728148385e-10       1.345905907610e-15       1.905574142011e-13       0.000000000000e+00       8.886898865211e-10       7.950622504249e-11       1.233291888786e-13 
   12       1.129346482484e-10       1.288312421117e-15       1.640636561762e-13       0.000000000000e+00       7.765278493438e-10       7.028426773083e-11       1.421600854728e-13 
   13       1.135181530576e-10       1.200674797098e-15       1.505300363071e-13       0.000000000000e+00       6.844563326069e-10       6.274647656813e-11       1.277329344121e-13 
   14       1.143248539668e-10       1.054790798629e-15       1.474046706738e-13       0.000000000000e+00       6.078507021415e-10       5.620932594459e-11       9.279532797211e-14 
   15       1.153611553964e-10       9.105397340049e-16       1.516730193050e-13       0.000000000000e+00       5.433693949554e-10       5.074770478380e-11       4.959311367331e-14 
   16       1.165881732768e-10       8.293959318797e-16       1.602914710052e-13       0.000000000000e+00       4.885455304964e-10       4.611880776749e-11       7.232457041182e-15 
   17       1.179228770001e-10       8.287731533315e-16       1.707806936822e-13       0.000000000000e+00       4.415155573956e-10       4.212235238613e-11      -2.792920720113e-14 
   18       1.193693327835e-10       8.811664361813e-16       1.812740701646e-13       0.000000000000e+00       4.006946006733e-10       3.857273443032e-11      -5.233421673884e-14 
   19       1.209354733042e-10       9.538926646952e-16       1.907919251822e-13       0.000000000000e+00       3.654375302935e-10       3.544037490848e-11      -6.510245742162e-14 
   20       1.225654212580e-10       1.013472815651e-15       1.985909989983e-13       0.000000000000e+00       3.343837602760e-10       3.267209093421e-11      -6.706958872395e-14 
   21       1.242710991097e-10       1.062834165238e-15       2.047508483933e-13       0.000000000000e+00       3.070458376716e-10       3.022365761251e-11      -6.038518099403e-14 
   22       1.260522065631e-10       1.120089788927e-15       2.097242388165e-13       0.000000000000e+00       2.827706820791e-10       2.801369697153e-11      -4.840846306382e-14 
   23       1.278979532748e-10       1.204635700201e-15       2.139590306984e-13       0.000000000000e+00       2.612248133204e-10       2.601113352474e-11      -3.407762182391e-14 
   24       1.297762580532e-10       1.335071215317e-15       2.179755427221e-13       0.000000000000e+00       2.419102418789e-10       2.418236688348e-11      -2.047693837868e-14 
   25       1.317039920307e-10       1.511806345212e-15       2.222685095664e-13       0.000000000000e+00       2.246000751119e-10       2.253677513357e-11      -9.447600224084e-15 
   26       1.336934821011e-10       1.727825392991e-15       2.272832348509e-13       0.000000000000e+00       2.089813615282e-10       2.107676212680e-11      -2.331878377498e-15 
   27       1.357258781705e-10       1.976711990925e-15       2.330399219913e-13       0.000000000000e+00       1.948668547675e-10       1.976942456170e-11       6.620874776501e-16 
   28       1.377655510889e-10       2.252057272074e-15       2.393544111693e-13       0.000000000000e+00       1.820132713427e-10       1.856394746970e-11      -9.525864059680e-17 
   29       1.398222361651e-10       2.553377841898e-15       2.459228015376e-13       0.000000000000e+00       1.703550513081e-10       1.745584714437e-11      -3.801164584992e-15 
   30       1.419101743440e-10       2.881917843474e-15       2.523094512971e-13       0.000000000000e+00       1.597671041960e-10       1.644630635083e-11      -9.226625374392e-15 
   31       1.440332209789e-10       3.238301828760e-15       2.580005829125e-13       0.000000000000e+00       1.500335693591e-10       1.552718272645e-11      -1.492866705818e-14 
   32       1.461942655845e-10       3.620417545897e-15       2.626239878208e-13       0.000000000000e+00       1.411042583075e-10       1.468921756915e-11      -2.002927036221e-14 
   33       1.483866108514e-10       4.024639252091e-15       2.658009009036e-13       0.000000000000e+00       1.329161010051e-10       1.391497884270e-11      -2.370100757839e-14 
   34       1.505973857315e-10       4.447817450894e-15       2.671636669731e-13       0.000000000000e+00       1.253545982387e-10       1.318309511900e-11      -2.518539306766e-14 
   35       1.528332219569e-10       4.892544928984e-15       2.666307510488e-13       0.000000000000e+00       1.183811086528e-10       1.249406564355e-11      -2.459200535568e-14 
   36       1.551019055691e-10       5.363799237493e-15       2.642298494670e-13       0.000000000000e+00       1.119397476091e-10       1.185261106281e-11      -2.238999271293e-14 
   37       1.574058371037e-10       5.866748481280e-15       2.600329649045e-13       0.000000000000e+00       1.059467510265e-10       1.126053901250e-11      -1.915231562223e-14 
   38       1.597454861401e-10       6.403718088697e-15       2.541715762552e-13       0.000000000000e+00       1.003866707857e-10       1.071669764832e-11      -1.535846015769e-14 
   39       1.621158466144e-10       6.976268060617e-15       2.468320934708e-13       0.000000000000e+00       9.524189565800e-11       1.021645803216e-11      -1.154171511575e-14 
   40       1.645046229553e-10       7.586006462290e-15       2.382561876825e-13       0.000000000000e+00       9.046338873261e-11       9.751313026443e-12      -8.351242868833e-15 
   41       1.668978692326e-10       8.234293962814e-15       2.286722631095e-13       0.000000000000e+00       8.598777929521e-11       9.311590205641e-12      -6.389558464353e-15 
   42       1.693007832654e-10       8.921239578708e-15       2.180548497631e-13       0.000000000000e+00       8.180192047866e-11       8.896429003848e-12      -5.644106370251e-15 
   43       1.717225132238e-10       9.646379549436e-15       2.062926215520e-13       0.000000000000e+00       7.789473300147e-11       8.506507949095e-12      -5.882707386343e-15 
   44       1.741701544101e-10       1.040892638917e-14       1.932520631493e-13       0.000000000000e+00       7.423783281529e-11       8.141177032052e-12      -6.802860688273e-15 
   45       1.766484086349e-10       1.120805238907e-14       1.787876061975e-13       0.000000000000e+00       7.079567615481e-11       7.798901388859e-12      -8.072935737455e-15 
   46       1.791590521619e-10       1.204388706574e-14       1.627792992756e-13       0.000000000000e+00       6.756285815918e-11       7.479019631629e-12      -9.481084707862e-15 
   47       1.817008674687e-10       1.291678479834e-14       1.451037666540e-13       0.000000000000e+00       6.453562144157e-11       7.180316935396e-12      -1.082316020689e-14 
   48       1.842694534585e-10       1.382704578345e-14       1.256226495208e-13       0.000000000000e+00       6.170060572876e-11       6.900432856235e-12      -1.185902978052e-14 
   49       1.868569613924e-10       1.477491401748e-14       1.041817309404e-13       0.000000000000e+00       5.903413371004e-11       6.635779262874e-12      -1.231068845331e-14 
   50       1.894553090633e-10       1.576058617737e-14       8.065349502676e-14       0.000000000000e+00       5.650934392216e-11       6.382580617823e-12      -1.195046033320e-14 
   51       1.920674644869e-10       1.678424578562e-14       5.508045349715e-14       0.000000000000e+00       5.412152875745e-11       6.140518109408e-12      -1.089820684675e-14 
   52       1.946987685840e-10       1.784603483144e-14       2.756921092819e-14       0.000000000000e+00       5.186843971774e-11       5.909932817942e-12      -9.401529729389e-15 
   53       1.973536266294e-10       1.894604221377e-14      -1.748427998671e-15       0.000000000000e+00       4.974270479885e-11       5.690761261402e-12      -7.755029136894e-15 
   54       2.000354078661e-10       2.008430223661e-14      -3.271428957574e-14       0.000000000000e+00       4.773148361187e-11       5.482506143494e-12      -6.302655670776e-15 
   55       2.027464876914e-10       2.126081020266e-14      -6.518232439909e-14       0.000000000000e+00       4.582038620176e-11       5.284466358513e-12      -5.357166492329e-15 
   56       2.054886164618e-10       2.247557717793e-14      -9.914796331110e-14       0.000000000000e+00       4.400715960923e-11       5.096560929981e-12      -4.929674439734e-15 
   57       2.082624664742e-10       2.372858619619e-14      -1.346488487933e-13       0.000000000000e+00       4.229079726240e-11       4.918658518987e-12      -4.937032862785e-15 
   58       2.110674046539e-10       2.501977553209e-14      -1.717283563390e-13       0.000000000000e+00       4.066739829989e-11       4.750317366348e-12      -5.277986540799e-15 
   59       2.139013977240e-10       2.634903786264e-14      -2.104359708146e-13       0.000000000000e+00       3.912998881015e-11       4.590766141580e-12      -5.832293997181e-15 
   60       2.167609173749e-10       2.771621942859e-14      -2.508276628205e-13       0.000000000000e+00       3.766834307071e-11       4.438884791880e-12      -6.459849813988e-15 
   61       2.196424294519e-10       2.912106328615e-14      -2.929544216065e-13       0.000000000000e+00       3.627182362184e-11       4.293507963590e-12      -7.029631500078e-15 
   62       2.225474666624e-10       3.056302607454e-14      -3.368239946199e-13       0.000000000000e+00       3.493905083392e-11       4.154458177853e-12      -7.516118300159e-15 
   63       2.254785313954e-10       3.204141844464e-14      -3.824311887638e-13       0.000000000000e+00       3.367009644185e-11       4.021711633893e-12      -7.923055647356e-15 
   64       2.284375684881e-10       3.355545477873e-14      -4.297689565900e-13       0.000000000000e+00       3.246357490250e-11       3.895087361024e-12      -8.255607627632e-15 
   65       2.314259206551e-10       3.510425057785e-14      -4.788283968767e-13       0.000000000000e+00       3.131656041930e-11       3.774238302596e-12      -8.520425604880e-15 
   66       2.344442839172e-10       3.668681984929e-14      -5.295987552056e-13       0.000000000000e+00       3.022450396697e-11       3.658642399959e-12      -8.725716846021e-15 
   67       2.374926630299e-10       3.830207249404e-14      -5.820674245395e-13       0.000000000000e+00       2.918115031605e-11       3.547593676413e-12      -8.881313146102e-15 
   68       2.405708385227e-10       3.994893232470e-14      -6.362198931187e-13       0.000000000000e+00       2.818020884457e-11       3.440400302207e-12      -8.997649232357e-15 
   69       2.436799773346e-10       4.162672472819e-14      -6.920395745993e-13       0.000000000000e+00       2.722094457915e-11       3.337045323027e-12      -9.082304203627e-15 
   70       2.468212699660e-10       4.333486322135e-14      -7.495079443755e-13       0.000000000000e+00       2.630357619070e-11       3.237644410463e-12      -9.142879356694e-15 
   71       2.499954168221e-10       4.507273623465e-14      -8.086045884597e-13       0.000000000000e+00       2.542758500723e-11       3.142247169223e-12      -9.188066413019e-15 
   72       2.532025967271e-10       4.683970758491e-14      -8.693072027123e-13       0.000000000000e+00       2.459167689241e-11       3.050833514728e-12      -9.227688260940e-15 
   73       2.564424354373e-10       4.863511694782e-14      -9.315915920720e-13       0.000000000000e+00       2.379374412405e-11       2.963310050696e-12      -9.272739697882e-15 
   74       2.597139741547e-10       5.045828033065e-14      -9.954316697859e-13       0.000000000000e+00       2.303082727267e-11       2.879506446733e-12      -9.335428172563e-15 
   75       2.630156380406e-10       5.230849054483e-14      -1.060799456640e-12       0.000000000000e+00       2.229907707997e-11       2.799171815918e-12      -9.429214527194e-15 
   76       2.663458792960e-10       5.418485798117e-14      -1.127662187066e-12       0.000000000000e+00       2.159471005693e-11       2.722041269105e-12      -9.564914060392e-15 
   77       2.697053113908e-10       5.608579836979e-14      -1.195973019936e-12       0.000000000000e+00       2.091716072489e-11       2.648057596700e-12      -9.738088825329e-15 
   78       2.730949086246e-10       5.800945203540e-14      -1.265678624565e-12       0.000000000000e+00       2.026643761244e-11       2.577183618244e-12      -9.939419595189e-15 
   79       2.765153487187e-10       5.995383255127e-14      -1.336721864438e-12       0.000000000000e+00       1.964216307364e-11       2.509333443886e-12      -1.015840218613e-14 
   80       2.799669951614e-10       6.191682393710e-14      -1.409041737113e-12       0.000000000000e+00       1.904355554356e-11       2.444370290993e-12      -1.038330741317e-14 
   81       2.834498795544e-10       6.389617785691e-14      -1.482573314124e-12       0.000000000000e+00       1.846941179381e-11       2.382104300777e-12      -1.060114104609e-14 
   82       2.869636839589e-10       6.588951081699e-14      -1.557247680889e-12       0.000000000000e+00       1.791808918811e-11       2.322290354907e-12      -1.079760376531e-14 
   83       2.905077232411e-10       6.789430136374e-14      -1.632991876609e-12       0.000000000000e+00       1.738748793785e-11       2.264625892131e-12      -1.095705111776e-14 
   84       2.940813127134e-10       6.990813928226e-14      -1.709737231967e-12       0.000000000000e+00       1.687556146760e-11       2.208822232075e-12      -1.106574007680e-14 
   85       2.976849797508e-10       7.192952679631e-14      -1.787446101965e-12       0.000000000000e+00       1.638198359319e-11       2.154836914784e-12      -1.112227482969e-14 
   86       3.013194216012e-10       7.395720567038e-14      -1.866089475248e-12       0.000000000000e+00       1.590672647787e-11       2.102676054118e-12      -1.112882731297e-14 
   87       3.049851269355e-10       7.598991843048e-14      -1.945639050195e-12       0.000000000000e+00       1.544954835806e-11       2.052323321175e-12      -1.108801954457e-14 
   88       3.086823646700e-10       7.802640979738e-14      -2.026067315964e-12       0.000000000000e+00       1.500998467461e-11       2.003738996322e-12      -1.100293881669e-14 
   89       3.124111727875e-10       8.006542811979e-14      -2.107347633530e-12       0.000000000000e+00       1.458733920418e-11       1.956859021230e-12      -1.087715288873e-14 
   90       3.161713471588e-10       8.210572680757e-14      -2.189454316738e-12       0.000000000000e+00       1.418067519058e-11       1.911594050910e-12      -1.071472518026e-14 
   91       3.199624303649e-10       8.414606576496e-14      -2.272362713338e-12       0.000000000000e+00       1.378880647613e-11       1.867828505738e-12      -1.052022996393e-14 
   92       3.237837005178e-10       8.618521282374e-14      -2.356049286034e-12       0.000000000000e+00       1.341028863299e-11       1.825419623498e-12      -1.029876755841e-14 
   93       3.276344291229e-10       8.822183486632e-14      -2.440483605240e-12       0.000000000000e+00       1.304376169498e-11       1.784233305494e-12      -1.005549145437e-14 
   94       3.315147233079e-10       9.025414935039e-14      -2.525602773737e-12       0.000000000000e+00       1.268905658067e-11       1.744259881004e-12      -9.794075338156e-15 
   95       3.354247901863e-10       9.228022277955e-14      -2.611333287426e-12       0.000000000000e+00       1.234623945346e-11       1.705514082129e-12      -9.518042525791e-15 
   96       3.393646717195e-10       9.429807626360e-14      -2.697598751298e-12       0.000000000000e+00       1.201527096008e-11       1.667999364095e-12      -9.231241866056e-15 
   97       3.433342372308e-10       9.630568543755e-14      -2.784319849453e-12       0.000000000000e+00       1.169600218832e-11       1.631707462351e-12      -8.937856233822e-15 
   98       3.473331759206e-10       9.830098038067e-14      -2.871414315115e-12       0.000000000000e+00       1.138817062472e-11       1.596617949672e-12      -8.642411023361e-15 
   99       3.513609893805e-10       1.002818455354e-13      -2.958796900651e-12       0.000000000000e+00       1.109139611228e-11       1.562697793257e-12      -8.349782641664e-15 
  100       3.554169841086e-10       1.022461196264e-13      -3.046379347586e-12       0.000000000000e+00       1.080517680820e-11       1.529900911828e-12      -8.065207001756e-15 
  101       3.595002640236e-10       1.041915955795e-13      -3.134070356622e-12       0.000000000000e+00       1.052888514154e-11       1.498167732729e-12      -7.794288016015e-15 
  102       3.636097229797e-10       1.061160204407e-13      -3.221775557653e-12       0.000000000000e+00       1.026176377095e-11       1.467424749029e-12      -7.543006089489e-15 
  103       3.677440372813e-10       1.080170952954e-13      -3.309397479783e-12       0.000000000000e+00       1.000292154238e-11       1.437584076618e-12      -7.317726613212e-15 
  104       3.719019491626e-10       1.098925838605e-13      -3.396842053433e-12       0.000000000000e+00       9.751535515500e-12       1.408563464583e-12      -7.123733086824e-15 
  105       3.760831769604e-10       1.117406551430e-13      -3.484039181549e-12       0.000000000000e+00       9.507496830354e-12       1.380350358784e-12      -6.960582519705e-15 
  106       3.802876145101e-10       1.135595871343e-13      -3.570924904305e-12       0.000000000000e+00       9.270844958046e-12       1.352945706926e-12      -6.826135525391e-15 
  107       3.845150469236e-10       1.153476633699e-13      -3.657435156454e-12       0.000000000000e+00       9.041567666727e-12       1.326344062576e-12      -6.717968038341e-15 
