# dimensionless total lensed [l(l+1)/2pi] C_l's
# for l=2 to 2500, i.e. number of multipoles equal to 2499
#
# -> if you prefer output in CAMB/HealPix/LensPix units/order, set 'format' to 'camb' in input file
# -> if you don't want to see such a header, set 'headers' to 'no' in input file
# -> for CMB lensing (phi), these are C_l^phi-phi for the lensing potential.
#    Remember the conversion factors:
#    C_l^dd (deflection) = l(l+1) C_l^phi-phi
#    C_l^gg (shear/convergence) = 1/4 (l(l+1))^2 C_l^phi-phi
#
# 1:l     2:TT                     3:EE                     4:TE                     5:BB                     6:phiphi                 7:TPhi                   8:Ephi               
    2       1.495442760239e-10       7.309265059073e-15       4.815171148057e-13       2.388861321574e-19       8.628903609863e-09       4.854772121439e-10      -2.515854151611e-12 
    3       1.409375667270e-10       1.238839452129e-14       6.068719461073e-13       4.780044697677e-19       5.411291720684e-09       3.469573579981e-10      -2.211507031142e-12 
    4       1.324638934015e-10       1.446592354282e-14       6.277975858838e-13       7.971819515267e-19       3.776588552529e-09       2.639785058319e-10      -1.764116067079e-12 
    5       1.257528917636e-10       1.337973190993e-14       5.879550144257e-13       1.196705742370e-18       2.821984230335e-09       2.093815846378e-10      -1.309529286449e-12 
    6       1.208087576868e-10       1.032478441008e-14       5.173987897670e-13       1.676916231855e-18       2.205212283153e-09       1.709429020608e-10      -8.948468925434e-13 
    7       1.173342232869e-10       6.843838595424e-15       4.365330660548e-13       2.238195751593e-18       1.778233642777e-09       1.425663892124e-10      -5.443860557510e-13 
    8       1.150094177846e-10       4.045255171706e-15       3.576614997222e-13       2.880956073091e-18       1.468351551130e-09       1.208855296480e-10      -2.689334595818e-13 
    9       1.135899950893e-10       2.339962952309e-15       2.880577371249e-13       3.605625180335e-18       1.235838581766e-09       1.038809745613e-10      -7.009986714675e-14 
   10       1.128613019399e-10       1.576066392365e-15       2.317780349504e-13       4.412633838628e-18       1.056623422304e-09       9.029297643025e-11       5.745597591295e-14 
   11       1.126830763639e-10       1.351208675784e-15       1.905546770929e-13       5.302402487215e-18       8.886898865211e-10       7.950622504249e-11       1.233291888786e-13 
   12       1.129466838720e-10       1.294588313194e-15       1.640599038151e-13       6.275328967767e-18       7.765278493438e-10       7.028426773083e-11       1.421600854728e-13 
   13       1.135320832279e-10       1.208007400859e-15       1.505250308448e-13       7.331777564573e-18       6.844563326069e-10       6.274647656813e-11       1.277329344121e-13 
   14       1.143407944812e-10       1.063264028588e-15       1.473981485499e-13       8.472069776698e-18       6.078507021415e-10       5.620932594459e-11       9.279532797211e-14 
   15       1.153792176218e-10       9.202377750043e-16       1.516646923447e-13       9.696477169763e-18       5.433693949554e-10       5.074770478380e-11       4.959311367331e-14 
   16       1.166084644267e-10       8.404031747824e-16       1.602810277098e-13       1.100521656823e-17       4.885455304964e-10       4.611880776749e-11       7.232457041182e-15 
   17       1.179455004562e-10       8.411741249177e-16       1.707678006179e-13       1.239844775177e-17       4.415155573956e-10       4.212235238613e-11      -2.792920720113e-14 
   18       1.193943884513e-10       8.950457245123e-16       1.812583734067e-13       1.387627248949e-17       4.006946006733e-10       3.857273443032e-11      -5.233421673884e-14 
   19       1.209630579507e-10       9.693348480089e-16       1.907730514470e-13       1.543874344739e-17       3.654375302935e-10       3.544037490848e-11      -6.510245742162e-14 
   20       1.225956289179e-10       1.030562381644e-15       1.985685571425e-13       1.708585593358e-17       3.343837602760e-10       3.267209093421e-11      -6.706958872395e-14 
   21       1.243040213792e-10       1.081655448072e-15       2.047244300475e-13       1.881757311313e-17       3.070458376716e-10       3.022365761251e-11      -6.038518099403e-14 
   22       1.260879329713e-10       1.140726895299e-15       2.096934194542e-13       2.063381614500e-17       2.827706820791e-10       2.801369697153e-11      -4.840846306382e-14 
   23       1.279365715021e-10       1.227172459349e-15       2.139233698066e-13       2.253449415519e-17       2.612248133204e-10       2.601113352474e-11      -3.407762182391e-14 
   24       1.298178542281e-10       1.359591117860e-15       2.179345844124e-13       2.451949432714e-17       2.419102418789e-10       2.418236688348e-11      -2.047693837868e-14 
   25       1.317486508257e-10       1.538392512915e-15       2.222217823403e-13       2.658871684833e-17       2.246000751119e-10       2.253677513357e-11      -9.447600224084e-15 
   26       1.337412869259e-10       1.756560534562e-15       2.272302518180e-13       2.874206278447e-17       2.089813615282e-10       2.107676212680e-11      -2.331878377498e-15 
   27       1.357769111769e-10       2.007678386542e-15       2.329801805342e-13       3.097946470379e-17       1.948668547675e-10       1.976942456170e-11       6.620874776501e-16 
   28       1.378198932365e-10       2.285336748796e-15       2.392873930348e-13       3.330087893610e-17       1.820132713427e-10       1.856394746970e-11      -9.525864059680e-17 
   29       1.398799670105e-10       2.589051788716e-15       2.458479729401e-13       3.570632085248e-17       1.703550513081e-10       1.745584714437e-11      -3.801164584992e-15 
   30       1.419713720247e-10       2.920067199417e-15       2.522262631119e-13       3.819584514382e-17       1.597671041960e-10       1.644630635083e-11      -9.226625374392e-15 
   31       1.440979621851e-10       3.279007070970e-15       2.579084713342e-13       4.076954573043e-17       1.500335693591e-10       1.552718272645e-11      -1.492866705818e-14 
   32       1.462626252167e-10       3.663758714978e-15       2.625223765460e-13       4.342757933042e-17       1.411042583075e-10       1.468921756915e-11      -2.002927036221e-14 
   33       1.484586618474e-10       4.070695958785e-15       2.656892024007e-13       4.617015913508e-17       1.329161010051e-10       1.391497884270e-11      -2.370100757839e-14 
   34       1.506731989227e-10       4.496668875622e-15       2.670412843340e-13       4.899754856504e-17       1.253545982387e-10       1.318309511900e-11      -2.518539306766e-14 
   35       1.529128658078e-10       4.944269819622e-15       2.664970831070e-13       5.191004285193e-17       1.183811086528e-10       1.249406564355e-11      -2.459200535568e-14 
   36       1.551854459578e-10       5.418475913234e-15       2.640842939673e-13       5.490798891775e-17       1.119397476091e-10       1.185261106281e-11      -2.238999271293e-14 
   37       1.574933371589e-10       5.924454819344e-15       2.598749225616e-13       5.799177036013e-17       1.059467510265e-10       1.126053901250e-11      -1.915231562223e-14 
   38       1.598370062376e-10       6.464531440687e-15       2.540004603819e-13       6.116172385251e-17       1.003866707857e-10       1.071669764832e-11      -1.535846015769e-14 
   39       1.622114442352e-10       7.040265218919e-15       2.466473362420e-13       6.441820043259e-17       9.524189565800e-11       1.021645803216e-11      -1.154171511575e-14 
   40       1.646043524794e-10       7.653263646759e-15       2.380572452419e-13       6.776159096175e-17       9.046338873261e-11       9.751313026443e-12      -8.351242868833e-15 
   41       1.670017818514e-10       8.304886766483e-15       2.284586225922e-13       7.119228767623e-17       8.598777929521e-11       9.311590205641e-12      -6.389558464353e-15 
   42       1.694089273386e-10       8.995242771903e-15       2.178260421742e-13       7.471054803672e-17       8.180192047866e-11       8.896429003848e-12      -5.644106370251e-15 
   43       1.718349343078e-10       9.723866981254e-15       2.060482311399e-13       7.831659058381e-17       7.789473300147e-11       8.506507949095e-12      -5.882707386343e-15 
   44       1.742868951552e-10       1.048997092530e-14       1.929917356647e-13       8.201063154584e-17       7.423783281529e-11       8.141177032052e-12      -6.802860688273e-15 
   45       1.767695088383e-10       1.129272579908e-14       1.785110574642e-13       8.579284769862e-17       7.079567615481e-11       7.798901388859e-12      -8.072935737455e-15 
   46       1.792845493631e-10       1.213225974498e-14       1.624863239138e-13       8.966325273330e-17       6.756285815918e-11       7.479019631629e-12      -9.481084707862e-15 
   47       1.818307971509e-10       1.300892560269e-14       1.447942473431e-13       9.362178318434e-17       6.453562144157e-11       7.180316935396e-12      -1.082316020689e-14 
   48       1.844038491032e-10       1.392302190399e-14       1.252965666991e-13       9.766832943979e-17       6.170060572876e-11       6.900432856235e-12      -1.185902978052e-14 
   49       1.869958545349e-10       1.487479085055e-14       1.038391728811e-13       1.018027331907e-16       5.903413371004e-11       6.635779262874e-12      -1.231068845331e-14 
   50       1.895987294137e-10       1.586442717396e-14       8.029466528214e-14       1.060247814122e-16       5.650934392216e-11       6.382580617823e-12      -1.195046033320e-14 
   51       1.922154402625e-10       1.689211224292e-14       5.470566873372e-14       1.103341922986e-16       5.412152875745e-11       6.140518109408e-12      -1.089820684675e-14 
   52       1.948513266908e-10       1.795798571851e-14       2.717890641232e-14       1.147306211015e-16       5.186843971774e-11       5.909932817942e-12      -9.401529729389e-15 
   53       1.975107927897e-10       1.906213400668e-14      -2.153689907038e-15       1.192136606155e-16       4.974270479885e-11       5.690761261402e-12      -7.755029136894e-15 
   54       2.001972067506e-10       2.020458874814e-14      -3.313381069502e-14       1.237828384636e-16       4.773148361187e-11       5.482506143494e-12      -6.302655670776e-15 
   55       2.029129428967e-10       2.138534248048e-14      -6.561526758583e-14       1.284376693073e-16       4.582038620176e-11       5.284466358513e-12      -5.357166492329e-15 
   56       2.056597499672e-10       2.260440364044e-14      -9.959336824542e-14       1.331778328799e-16       4.400715960923e-11       5.096560929981e-12      -4.929674439734e-15 
   57       2.084382984974e-10       2.386175258024e-14      -1.351056331298e-13       1.380030354270e-16       4.229079726240e-11       4.918658518987e-12      -4.937032862785e-15 
   58       2.112479536544e-10       2.515732476971e-14      -1.721953114404e-13       1.429129580965e-16       4.066739829989e-11       4.750317366348e-12      -5.277986540799e-15 
   59       2.140866804047e-10       2.649100995518e-14      -2.109117574777e-13       1.479072563650e-16       3.912998881015e-11       4.590766141580e-12      -5.832293997181e-15 
   60       2.169509486818e-10       2.786265131840e-14      -2.513108069947e-13       1.529855594635e-16       3.766834307071e-11       4.438884791880e-12      -6.459849813988e-15 
   61       2.198372223079e-10       2.927198889754e-14      -2.934433145658e-13       1.581475485943e-16       3.627182362184e-11       4.293507963590e-12      -7.029631500078e-15 
   62       2.227470308346e-10       3.071847691256e-14      -3.373169076785e-13       1.633932133952e-16       3.493905083392e-11       4.154458177853e-12      -7.516118300159e-15 
   63       2.256828730306e-10       3.220142375743e-14      -3.829262767142e-13       1.687226522847e-16       3.367009644185e-11       4.021711633893e-12      -7.923055647356e-15 
   64       2.286466898867e-10       3.372004156191e-14      -4.302642571000e-13       1.741360006396e-16       3.246357490250e-11       3.895087361024e-12      -8.255607627632e-15 
   65       2.316398200345e-10       3.527344358197e-14      -4.793218300202e-13       1.796334327203e-16       3.131656041930e-11       3.774238302596e-12      -8.520425604880e-15 
   66       2.346629551655e-10       3.686064159019e-14      -5.300881231279e-13       1.852151635974e-16       3.022450396697e-11       3.658642399959e-12      -8.725716846021e-15 
   67       2.377160954503e-10       3.848054326610e-14      -5.825504112565e-13       1.908814510776e-16       2.918115031605e-11       3.547593676413e-12      -8.881313146102e-15 
   68       2.407990166600e-10       4.013207033006e-14      -6.366940608156e-13       1.966325857898e-16       2.818020884457e-11       3.440400302207e-12      -8.997649232357e-15 
   69       2.439128810948e-10       4.181454657409e-14      -6.925023483063e-13       2.024688548076e-16       2.722094457915e-11       3.337045323027e-12      -9.082304203627e-15 
   70       2.470588744846e-10       4.352738412953e-14      -7.499566061414e-13       2.083905740815e-16       2.630357619070e-11       3.237644410463e-12      -9.142879356694e-15 
   71       2.502376922378e-10       4.526997015022e-14      -8.090362749919e-13       2.143981012214e-16       2.542758500723e-11       3.142247169223e-12      -9.188066413019e-15 
   72       2.534495079474e-10       4.704166729096e-14      -8.697189030581e-13       2.204918371190e-16       2.459167689241e-11       3.050833514728e-12      -9.227688260940e-15 
   73       2.566939418967e-10       4.884181418600e-14      -9.319801453408e-13       2.266722275717e-16       2.379374412405e-11       2.963310050696e-12      -9.272739697882e-15 
   74       2.599700295653e-10       5.066972592743e-14      -9.957937629128e-13       2.329397649051e-16       2.303082727267e-11       2.879506446733e-12      -9.335428172563e-15 
   75       2.632761901355e-10       5.252469454372e-14      -1.061131622190e-12       2.392949895970e-16       2.229907707997e-11       2.799171815918e-12      -9.429214527194e-15 
   76       2.666108700234e-10       5.440582969116e-14      -1.127960796423e-12       2.457383930081e-16       2.159471005693e-11       2.722041269105e-12      -9.564914060392e-15 
   77       2.699746785732e-10       5.631154613195e-14      -1.196234261566e-12       2.522701015108e-16       2.091716072489e-11       2.648057596700e-12      -9.738088825329e-15 
   78       2.733685864084e-10       5.823998323037e-14      -1.265898494550e-12       2.588901374411e-16       2.026643761244e-11       2.577183618244e-12      -9.939419595189e-15 
   79       2.767932675896e-10       6.018915369555e-14      -1.336896161367e-12       2.655985124829e-16       1.964216307364e-11       2.509333443886e-12      -1.015840218613e-14 
   80       2.802490819622e-10       6.215694078346e-14      -1.409166056919e-12       2.723952272630e-16       1.904355554356e-11       2.444370290993e-12      -1.038330741317e-14 
   81       2.837360575046e-10       6.414109549875e-14      -1.482643044870e-12       2.792802709467e-16       1.846941179381e-11       2.382104300777e-12      -1.060114104609e-14 
   82       2.872538726759e-10       6.613923379668e-14      -1.557257997496e-12       2.862536208335e-16       1.791808918811e-11       2.322290354907e-12      -1.079760376531e-14 
   83       2.908018387640e-10       6.814883378501e-14      -1.632937735532e-12       2.933152419515e-16       1.738748793785e-11       2.264625892131e-12      -1.095705111776e-14 
   84       2.943792675124e-10       7.016748489064e-14      -1.709613375725e-12       3.004651019927e-16       1.687556146760e-11       2.208822232075e-12      -1.106574007680e-14 
   85       2.979866826912e-10       7.219368894908e-14      -1.787247095250e-12       3.077032198462e-16       1.638198359319e-11       2.154836914784e-12      -1.112227482969e-14 
   86       3.016247779490e-10       7.422618740595e-14      -1.865809714613e-12       3.150296244060e-16       1.590672647787e-11       2.102676054118e-12      -1.112882731297e-14 
   87       3.052940383793e-10       7.626372257540e-14      -1.945272764409e-12       3.224443398027e-16       1.544954835806e-11       2.052323321175e-12      -1.108801954457e-14 
   88       3.089947293441e-10       7.830503907672e-14      -2.025608566478e-12       3.299473852570e-16       1.500998467461e-11       2.003738996322e-12      -1.100293881669e-14 
   89       3.127268852969e-10       8.034888527095e-14      -2.106790315061e-12       3.375387749323e-16       1.458733920418e-11       1.956859021230e-12      -1.087715288873e-14 
   90       3.164902986059e-10       8.239401469743e-14      -2.188792157954e-12       3.452185177884e-16       1.418067519058e-11       1.911594050910e-12      -1.071472518026e-14 
   91       3.202845083775e-10       8.443918751049e-14      -2.271589277666e-12       3.529866174344e-16       1.378880647613e-11       1.867828505738e-12      -1.052022996393e-14 
   92       3.241087892790e-10       8.648317191596e-14      -2.355157972576e-12       3.608430719819e-16       1.341028863299e-11       1.825419623498e-12      -1.029876755841e-14 
   93       3.279624089560e-10       8.852463566162e-14      -2.439467661725e-12       3.687879910091e-16       1.304376169498e-11       1.784233305494e-12      -1.005549145437e-14 
   94       3.318454688470e-10       9.056179871974e-14      -2.524455347420e-12       3.768219668936e-16       1.268905658067e-11       1.744259881004e-12      -9.794075338156e-15 
   95       3.357581697506e-10       9.259273078102e-14      -2.610047443986e-12       3.849457593169e-16       1.234623945346e-11       1.705514082129e-12      -9.518042525791e-15 
   96       3.397005471105e-10       9.461545647478e-14      -2.696167482585e-12       3.931601845700e-16       1.201527096008e-11       1.667999364095e-12      -9.231241866056e-15 
   97       3.436724635249e-10       9.662795529634e-14      -2.782736081515e-12       4.014661170151e-16       1.169600218832e-11       1.631707462351e-12      -8.937856233822e-15 
   98       3.476736012574e-10       9.862816153442e-14      -2.869670916497e-12       4.098644905455e-16       1.138817062472e-11       1.596617949672e-12      -8.642411023361e-15 
   99       3.517034547466e-10       1.006139641985e-13      -2.956886690974e-12       4.183563000471e-16       1.109139611228e-11       1.562697793257e-12      -8.349782641664e-15 
  100       3.557613231164e-10       1.025832069463e-13      -3.044295106401e-12       4.269426028583e-16       1.080517680820e-11       1.529900911828e-12      -8.065207001756e-15 
  101       3.598463026862e-10       1.045336880110e-13      -3.131804832535e-12       4.356245202316e-16       1.052888514154e-11       1.498167732729e-12      -7.794288016015e-15 
  102       3.639572794810e-10       1.064631601287e-13      -3.219321477735e-12       4.444032387935e-16       1.026176377095e-11       1.467424749029e-12      -7.543006089489e-15 
  103       3.680929217413e-10       1.083693304660e-13      -3.306747559249e-12       4.532800120058e-16       1.000292154238e-11       1.437584076618e-12      -7.317726613212e-15 
  104       3.722519640348e-10       1.102499691684e-13      -3.393988994334e-12       4.622560300293e-16       9.751535515500e-12       1.408563464583e-12      -7.123733086824e-15 
  105       3.764341194300e-10       1.121032518627e-13      -3.480975636236e-12       4.713320061483e-16       9.507496830354e-12       1.380350358784e-12      -6.960582519705e-15 
  106       3.806392771542e-10       1.139274635017e-13      -3.567643469852e-12       4.805085369414e-16       9.270844958046e-12       1.352945706926e-12      -6.826135525391e-15 
  107       3.848672177622e-10       1.157208949823e-13      -3.653928380075e-12       4.897862289032e-16       9.041567666727e-12       1.326344062576e-12      -6.717968038341e-15 
